0.000000000	1248.000000000
0.131788224	1316.312622070
0.263576448	961.197448730
0.395364672	938.488098145
0.527152896	617.668212891
0.658941150	645.942749023
0.790729344	1155.626220703
0.922517598	1359.523437500
1.054305792	1832.101196289
1.186094046	1555.220336914
1.317882299	1304.878540039
1.449670553	1601.995971680
1.581458688	1227.569580078
1.713246942	821.953918457
1.845035195	726.885986328
1.976823449	354.779724121
2.108611584	599.302673340
2.240399837	511.149230957
2.372188091	634.687744141
2.503976345	740.486694336
2.635764599	1514.693115234
2.767552853	1832.485107422
2.899341106	1748.246093750
3.031129360	1654.791259766
3.162917376	1493.721313477
3.294705629	1156.352905273
3.426493883	1293.999023438
3.558282137	1370.366821289
3.690070391	852.082519531
3.821858644	946.904357910
3.953646898	834.710510254
4.085434914	396.311950684
4.217223167	561.328491211
4.349011421	529.251770020
4.480799675	744.491882324
4.612587929	967.372375488
4.744376183	1137.513793945
4.876164436	1243.493164062
5.007952690	1346.639526367
5.139740944	1616.851440430
5.271529198	1640.237548828
5.403317451	1614.046875000
5.535105705	1216.317626953
5.666893959	1426.633300781
5.798682213	884.161071777
5.930470467	851.540832520
6.062258720	947.448120117
6.194046497	780.652282715
6.325834751	548.430358887
6.457623005	500.372100830
6.589411259	506.787353516
6.721199512	852.246704102
6.852987766	1110.130981445
6.984776020	1513.223876953
7.116564274	1647.810058594
7.248352528	1462.851928711
7.380140781	1619.531372070
7.511929035	1599.638427734
7.643717289	1203.497558594
7.775505543	1223.372314453
7.907293797	762.697326660
8.039081573	696.808105469
8.170869827	480.186065674
8.302658081	457.987823486
8.434446335	441.116088867
8.566234589	509.092529297
8.698022842	694.877807617
8.829811096	1174.897460938
8.961599350	1285.804443359
9.093387604	1377.371826172
9.225175858	1434.031250000
9.356964111	1749.222412109
9.488752365	1389.807373047
9.620540619	1455.995605469
9.752328873	1551.922729492
9.884117126	1130.325195312
10.015905380	745.629821777
10.147693634	906.871276855
10.279481888	696.631530762
10.411270142	499.788452148
10.543058395	494.818756104
10.674846649	472.606597900
10.806634903	1005.234802246
10.938423157	1538.773071289
11.070211411	1568.519042969
11.201999664	1897.584594727
11.333787918	2261.745361328
11.465576172	1708.034301758
11.597364426	1477.501586914
11.729152679	1212.878417969
11.860940933	807.816772461
11.992729187	925.794128418
12.124517441	335.254943848
12.256305695	391.199707031
12.388092995	571.547973633
12.519881248	861.157836914
12.651669502	1067.876098633
12.783457756	1405.391113281
12.915246010	1521.210083008
13.047034264	1448.035888672
13.178822517	1884.405761719
13.310610771	2051.682617188
13.442399025	1341.816406250
13.574187279	1223.159423828
13.705975533	1278.500610352
13.837763786	944.327941895
13.969552040	752.066101074
14.101340294	361.879791260
14.233128548	299.237335205
14.364916801	313.499877930
14.496705055	258.146759033
14.628493309	273.458618164
14.760281563	544.192565918
14.892069817	574.030395508
15.023858070	572.570495605
15.155646324	697.104003906
15.287434578	722.472290039
15.419222832	1077.668701172
15.551011086	1090.476928711
15.682799339	1127.986206055
15.814587593	1832.868896484
15.946375847	1482.487670898
16.078163147	1460.015136719
16.209951401	1064.276489258
16.341739655	998.342468262
16.473527908	1043.335693359
16.605316162	925.306579590
16.737104416	641.932189941
16.868892670	626.892822266
17.000680923	442.451049805
17.132469177	383.227966309
17.264257431	429.896423340
17.396045685	350.798706055
17.527833939	351.298400879
17.659622192	338.024169922
17.791410446	466.997680664
17.923198700	216.158035278
18.054986954	709.599853516
18.186775208	645.908386230
18.318563461	776.825378418
18.450351715	788.252868652
18.582139969	756.109802246
18.713928223	824.590454102
18.845716476	822.810546875
18.977504730	622.944885254
19.109292984	583.148193359
19.241081238	331.436767578
19.372869492	522.178710938
19.504657745	486.633392334
19.636445999	348.781433105
19.768234253	397.280181885
19.900022507	158.791610718
20.031810760	559.164306641
20.163599014	546.966308594
20.295387268	657.650939941
20.427175522	484.699859619
20.558963776	228.585510254
20.690752029	335.123046875
20.822540283	387.786773682
20.954328537	437.249359131
21.086116791	433.217346191
21.217905045	334.160644531
21.349693298	495.712432861
21.481481552	334.343811035
21.613269806	538.887634277
21.745058060	882.931945801
21.876846313	847.103393555
22.008634567	798.922302246
22.140422821	866.447814941
22.272211075	755.353759766
22.403999329	518.625244141
22.535787582	422.027526855
22.667575836	330.835906982
22.799364090	382.411743164
22.931152344	487.357086182
23.062940598	408.508544922
23.194728851	492.578704834
23.326517105	350.015899658
23.458305359	315.248901367
23.590093613	388.399108887
23.721881866	679.559570312
23.853670120	1067.217163086
23.985458374	1184.726806641
24.117246628	1158.986572266
24.249034882	1360.709350586
24.380823135	1335.850952148
24.512611389	1230.629394531
24.644397736	956.196533203
24.776185989	883.011718750
24.907974243	917.535522461
25.039762497	848.009094238
25.171550751	551.390747070
25.303339005	386.539733887
25.435127258	188.240997314
25.566915512	138.301345825
25.698703766	142.071624756
25.830492020	154.021453857
25.962280273	301.496398926
26.094068527	554.036499023
26.225856781	634.783508301
26.357645035	955.770324707
26.489433289	1281.487182617
26.621221542	1414.587036133
26.753009796	1276.801391602
26.884798050	1434.887695312
27.016586304	1696.010009766
27.148374557	1262.692016602
27.280162811	1178.848510742
27.411951065	846.437683105
27.543739319	552.426086426
27.675527573	475.287719727
27.807315826	531.398437500
27.939104080	281.373962402
28.070892334	189.574218750
28.202680588	129.623703003
28.334468842	567.727111816
28.466257095	544.853515625
28.598045349	603.215332031
28.729833603	668.421997070
28.861621857	1098.734619141
28.993410110	1360.159667969
29.125198364	1475.465332031
29.256986618	1450.921142578
29.388774872	1188.390258789
29.520563126	1404.190551758
29.652351379	965.130432129
29.784139633	1328.546508789
29.915927887	774.495117188
30.047716141	559.342712402
30.179504395	195.152008057
30.311292648	224.102615356
30.443080902	544.169006348
30.574869156	595.399169922
30.706657410	661.415527344
30.838445663	585.958312988
30.970233917	751.519653320
31.102022171	1083.119506836
31.233810425	1061.596679688
31.365598679	1291.065307617
31.497386932	1551.276977539
31.629175186	862.411743164
31.760963440	650.655212402
31.892751694	649.302185059
32.024539948	542.343200684
32.156326294	377.561035156
32.288116455	477.322723389
32.419902802	793.875183105
32.551692963	914.757690430
32.683479309	1211.861206055
32.815269470	1353.280395508
32.947055817	1560.091552734
33.078845978	1548.399658203
33.210632324	1389.801513672
33.342422485	916.687866211
33.474208832	328.428680420
33.605998993	189.395462036
33.737785339	366.387207031
33.869575500	212.414993286
34.001361847	233.550094604
34.133152008	305.518890381
34.264938354	372.866119385
34.396728516	591.526672363
34.528514862	946.132507324
34.660305023	1324.866088867
34.792091370	1309.024047852
34.923881531	1754.700317383
35.055667877	2079.674560547
35.187458038	1343.318359375
35.319244385	1521.463378906
35.451034546	1411.668090820
35.582820892	804.414733887
35.714611053	497.760986328
35.846397400	534.129272461
35.978187561	365.709442139
36.109973907	214.677658081
36.241764069	385.840576172
36.373550415	401.332824707
36.505340576	301.094055176
36.637126923	288.871856689
36.768917084	1076.906372070
36.900703430	1761.672851562
37.032493591	1802.129394531
37.164279938	1837.064697266
37.296070099	1764.111206055
37.427856445	1821.504638672
37.559646606	1951.187622070
37.691432953	1508.213623047
37.823223114	885.220581055
37.955009460	752.092712402
38.086799622	453.576660156
38.218585968	364.764068604
38.350376129	141.428329468
38.482162476	201.708099365
38.613952637	499.146789551
38.745738983	424.562652588
38.877529144	669.996643066
39.009315491	1310.199218750
39.141105652	1197.478271484
39.272891998	1345.906127930
39.404678345	1470.926757812
39.536468506	1608.200561523
39.668254852	1583.649291992
39.800045013	1520.768188477
39.931831360	1278.126708984
40.063621521	1142.539916992
40.195407867	871.815612793
40.327198029	303.852661133
40.458984375	81.096687317
40.590774536	110.734413147
40.722560883	381.132659912
40.854351044	344.672119141
40.986137390	199.109771729
41.117927551	385.131011963
41.249713898	1215.231201172
41.381504059	1033.934692383
41.513290405	1606.888916016
41.645080566	1911.740722656
41.776866913	1924.288818359
41.908657074	1922.381835938
42.040443420	1489.986938477
42.172233582	942.870483398
42.304019928	970.629455566
42.435810089	752.414367676
42.567596436	451.564819336
42.699386597	651.957641602
42.831172943	1055.990600586
42.962963104	1180.896850586
43.094749451	1365.660522461
43.226539612	1664.779541016
43.358325958	1562.395263672
43.490116119	1489.930908203
43.621902466	943.032348633
43.753692627	421.946929932
43.885478973	381.702972412
44.017269135	333.122467041
44.149055481	302.637207031
44.280845642	412.476928711
44.412631989	474.128204346
44.544422150	740.853637695
44.676208496	1132.081787109
44.807998657	994.410156250
44.939785004	1437.285400391
45.071575165	1716.877197266
45.203361511	1658.037719727
45.335151672	1788.941284180
45.466938019	1686.593139648
45.598728180	1290.675781250
45.730514526	1162.659667969
45.862304688	794.661987305
45.994091034	827.376708984
46.125881195	741.819396973
46.257667542	840.765747070
46.389457703	635.638977051
46.521244049	624.013793945
46.653034210	577.991516113
46.784820557	298.333831787
46.916610718	446.750183105
47.048397064	266.240844727
47.180187225	207.635528564
47.311973572	274.387359619
47.443763733	388.752258301
47.575550079	475.702728271
47.707340240	707.289855957
47.839126587	1144.054199219
47.970916748	1426.581542969
48.102703094	1567.864501953
48.234493256	2096.004638672
48.366279602	2366.373291016
48.498069763	1691.062377930
48.629856110	1164.955322266
48.761646271	1011.449401855
48.893432617	739.662780762
49.025222778	542.554931641
49.157009125	477.838348389
49.288795471	569.770446777
49.420585632	1088.389892578
49.552371979	1309.886962891
49.684162140	1534.513916016
49.815948486	2067.785888672
49.947738647	1773.211059570
50.079524994	1366.514526367
50.211315155	1233.084838867
50.343101501	1091.226928711
50.474891663	806.575378418
50.606678009	260.103515625
50.738468170	289.890869141
50.870254517	336.768310547
51.002044678	286.685577393
51.133831024	345.140533447
51.265621185	427.384368896
51.397407532	726.876953125
51.529197693	1115.563110352
51.660984039	1669.567138672
51.792774200	2045.496093750
51.924560547	2077.999511719
52.056350708	1997.212768555
52.188137054	1907.484252930
52.319927216	1758.674926758
52.451713562	1346.875000000
52.583503723	732.425354004
52.715290070	639.770690918
52.847080231	234.631423950
52.978866577	383.036193848
53.110656738	309.514099121
53.242443085	263.373474121
53.374233246	251.050582886
53.506019592	244.470596313
53.637809753	268.719421387
53.769596100	315.585449219
53.901386261	512.281616211
54.033172607	1145.477783203
54.164962769	1593.533813477
54.296749115	1867.418823242
54.428539276	1616.485229492
54.560325623	2091.421630859
54.692115784	2003.733276367
54.823902130	1750.341064453
54.955692291	1246.809814453
55.087478638	1109.859497070
55.219268799	649.737060547
55.351055145	438.484466553
55.482845306	168.627029419
55.614631653	410.449462891
55.746421814	169.418640137
55.878208160	255.224868774
56.009998322	275.006225586
56.141784668	244.510955811
56.273574829	311.577972412
56.405361176	558.372314453
56.537151337	938.924560547
56.668937683	1458.543334961
56.800727844	1845.442138672
56.932514191	1898.038452148
57.064304352	1700.301513672
57.196090698	1541.506591797
57.327880859	1499.393066406
57.459667206	1152.593139648
57.591457367	1022.401977539
57.723243713	1495.479614258
57.855033875	1362.685424805
57.986820221	1349.200561523
58.118610382	1539.899169922
58.250396729	1822.069580078
58.382186890	1636.814697266
58.513973236	1602.248168945
58.645763397	2015.730224609
58.777549744	1403.467773438
58.909336090	1675.250976562
59.041126251	1063.382812500
59.172912598	623.082763672
59.304702759	1072.344604492
59.436489105	1112.586791992
59.568279266	976.171203613
59.700065613	1002.762634277
59.831855774	1126.992797852
59.963642120	1368.931518555
60.095432281	1584.523803711
60.227218628	1417.455566406
60.359008789	1835.429443359
60.490795135	1694.670410156
60.622585297	1768.308959961
60.754371643	1930.608398438
60.886161804	1775.120605469
61.017948151	1564.036010742
61.149738312	1267.733276367
61.281524658	1047.304321289
61.413314819	707.076477051
61.545101166	431.018188477
61.676891327	379.222900391
61.808677673	274.306457520
61.940467834	339.582489014
62.072254181	262.797851562
62.204044342	260.961364746
62.335830688	513.644409180
62.467620850	1101.987304688
62.599407196	1494.982910156
62.731197357	1497.955444336
62.862983704	1654.725463867
62.994773865	2022.954833984
63.126560211	1365.004150391
63.258350372	1288.690185547
63.390136719	765.491088867
63.521926880	423.643707275
63.653713226	277.673614502
63.785503387	256.792297363
63.917289734	374.336608887
64.049079895	131.541564941
64.180870056	297.520721436
64.312652588	340.295257568
64.444442749	358.511291504
64.576232910	437.784545898
64.708023071	840.537597656
64.839805603	1357.870971680
64.971595764	1052.843750000
65.103385925	1227.119384766
65.235176086	1180.734008789
65.366958618	1265.937744141
65.498748779	1329.555419922
65.630538940	679.069213867
65.762329102	763.892822266
65.894111633	677.629333496
66.025901794	471.531463623
66.157691956	377.300872803
66.289482117	411.039825439
66.421264648	610.998779297
66.553054810	1084.271850586
66.684844971	1126.892700195
66.816635132	1495.747192383
66.948417664	1778.321044922
67.080207825	1236.023681641
67.211997986	588.834411621
67.343788147	723.199279785
67.475570679	670.505187988
67.607360840	515.555603027
67.739151001	720.100769043
67.870941162	812.734924316
68.002723694	808.948242188
68.134513855	561.430725098
68.266304016	460.020202637
68.398094177	345.681243896
68.529876709	368.544097900
68.661666870	323.016174316
68.793457031	268.804229736
68.925239563	375.165557861
69.057029724	666.310791016
69.188819885	765.232604980
69.320610046	1336.626831055
69.452392578	1760.296630859
69.584182739	1632.460449219
69.715972900	1673.907958984
69.847763062	1338.599853516
69.979545593	599.917907715
70.111335754	541.865356445
70.243125916	582.340026855
70.374916077	176.960479736
70.506698608	310.629821777
70.638488770	268.058563232
70.770278931	294.289459229
70.902069092	388.836975098
71.033851624	266.950012207
71.165641785	527.802001953
71.297431946	904.586425781
71.429222107	1039.878417969
71.561004639	1175.588623047
71.692794800	1364.030639648
71.824584961	1212.373657227
71.956375122	1114.137084961
72.088157654	1180.108886719
72.219947815	670.952697754
72.351737976	504.853240967
72.483528137	395.418640137
72.615310669	392.385406494
72.747100830	279.804870605
72.878890991	167.917205811
73.010681152	265.773590088
73.142463684	256.566894531
73.274253845	343.624755859
73.406044006	311.336730957
73.537834167	246.853912354
73.669616699	289.032440186
73.801406860	279.322937012
73.933197021	400.397735596
74.064987183	590.005249023
74.196769714	735.714416504
74.328559875	1066.384521484
74.460350037	1247.180541992
74.592140198	928.671813965
74.723922729	1297.401489258
74.855712891	1068.510131836
74.987503052	965.082336426
75.119293213	719.736145020
75.251075745	488.242767334
75.382865906	508.805297852
75.514656067	513.088867188
75.646446228	259.621398926
75.778228760	279.604400635
75.910018921	295.068115234
76.041809082	373.032592773
76.173599243	351.914062500
76.305381775	592.352844238
76.437171936	446.113677979
76.568962097	829.095214844
76.700752258	825.927307129
76.832534790	1121.471679688
76.964324951	1004.757080078
77.096115112	1061.656494141
77.227905273	967.814147949
77.359687805	837.842041016
77.491477966	786.775390625
77.623268127	414.421630859
77.755058289	420.301513672
77.886840820	334.457702637
78.018630981	313.849853516
78.150421143	346.729095459
78.282211304	143.535522461
78.413993835	257.589569092
78.545783997	388.912750244
78.677574158	574.661010742
78.809356689	824.957885742
78.941146851	849.232421875
79.072937012	1456.684814453
79.204727173	1691.347778320
79.336509705	981.740783691
79.468299866	748.629760742
79.600090027	617.639221191
79.731880188	656.854675293
79.863662720	471.099578857
79.995452881	452.206726074
80.127243042	772.248535156
80.259033203	747.220214844
80.390815735	667.667114258
80.522605896	728.482971191
80.654396057	694.842102051
80.786186218	406.056396484
80.917968750	300.169158936
81.049758911	265.784179688
81.181549072	262.746917725
81.313339233	332.918579102
81.445121765	257.608886719
81.576911926	454.674285889
81.708702087	451.075531006
81.840492249	518.708679199
81.972274780	673.629333496
82.104064941	760.085571289
82.235855103	768.074340820
82.367645264	922.703613281
82.499427795	1082.360107422
82.631217957	1205.299560547
82.763008118	1155.026489258
82.894798279	834.461669922
83.026580811	816.291137695
83.158370972	691.698059082
83.290161133	583.361267090
83.421951294	694.216369629
83.553733826	529.370300293
83.685523987	281.313079834
83.817314148	564.595214844
83.949104309	463.513549805
84.080886841	561.326171875
84.212677002	493.448059082
84.344467163	768.271301270
84.476257324	693.864807129
84.608039856	616.636291504
84.739830017	522.461242676
84.871620178	491.938659668
85.003410339	201.166839600
85.135192871	235.773529053
85.266983032	427.233795166
85.398773193	294.394927979
85.530563354	322.091430664
85.662345886	636.511962891
85.794136047	792.218566895
85.925926208	733.757873535
86.057716370	1083.478149414
86.189498901	1104.353515625
86.321289062	741.017883301
86.453079224	571.250610352
86.584869385	395.094451904
86.716651917	423.191284180
86.848442078	333.388214111
86.980232239	328.285827637
87.112022400	491.785156250
87.243804932	619.755187988
87.375595093	717.498046875
87.507385254	861.223327637
87.639175415	533.239807129
87.770957947	551.205871582
87.902748108	670.639648438
88.034538269	907.725158691
88.166328430	728.605224609
88.298110962	806.899536133
88.429901123	933.854248047
88.561691284	888.900268555
88.693473816	860.873413086
88.825263977	651.082031250
88.957054138	494.235565186
89.088844299	235.872970581
89.220626831	209.932662964
89.352416992	339.430938721
89.484207153	470.328491211
89.615997314	516.149169922
89.747779846	589.760009766
89.879570007	750.802612305
90.011360168	678.760864258
90.143150330	818.350036621
90.274932861	1080.751220703
90.406723022	736.330383301
90.538513184	674.192810059
90.670303345	686.155517578
90.802085876	559.604309082
90.933876038	492.614776611
91.065666199	687.591674805
91.197456360	774.670654297
91.329238892	834.055480957
91.461029053	455.138397217
91.592819214	310.155609131
91.724609375	327.349395752
91.856391907	268.786834717
91.988182068	336.247406006
92.119972229	563.390563965
92.251762390	669.905212402
92.383544922	959.050537109
92.515335083	1024.664550781
92.647125244	1210.935302734
92.778915405	1618.100585938
92.910697937	973.860717773
93.042488098	702.970764160
93.174278259	548.632385254
93.306068420	292.807617188
93.437850952	199.115966797
93.569641113	279.335388184
93.701431274	158.416763306
93.833221436	246.329101562
93.965003967	222.593734741
94.096794128	164.924804688
94.228584290	281.656097412
94.360374451	338.999786377
94.492156982	761.007568359
94.623947144	825.711608887
94.755737305	1095.546386719
94.887527466	1039.115112305
95.019309998	1255.390258789
95.151100159	1816.762695312
95.282890320	876.722045898
95.414680481	810.158447266
95.546463013	539.663574219
95.678253174	529.306335449
95.810043335	438.779815674
95.941833496	311.803009033
96.073616028	324.727813721
96.205406189	317.869354248
96.337196350	259.023071289
96.468986511	287.994171143
96.600769043	520.061584473
96.732559204	990.585510254
96.864349365	1155.557617188
96.996139526	1421.521850586
97.127922058	1383.745971680
97.259712219	958.095581055
97.391502380	978.536376953
97.523292542	894.872985840
97.655075073	578.882629395
97.786865234	336.009735107
97.918655396	306.385467529
98.050445557	428.009246826
98.182228088	573.189514160
98.314018250	860.898498535
98.445808411	1433.177490234
98.577590942	1553.801391602
98.709381104	1401.935302734
98.841171265	1780.715942383
98.972961426	1317.145019531
99.104743958	851.484680176
99.236534119	634.368103027
99.368324280	296.021270752
99.500114441	268.284240723
99.631896973	276.871948242
99.763687134	272.924713135
99.895477295	276.412506104
100.027267456	222.348022461
100.159049988	584.608886719
100.290840149	278.912811279
100.422630310	533.285583496
100.554420471	573.723266602
100.686203003	837.267211914
100.817993164	1129.135986328
100.949783325	999.684387207
101.081573486	1101.238037109
101.213356018	1680.155395508
101.345146179	2149.226562500
101.476936340	1394.002929688
101.608726501	1302.065917969
101.740509033	761.301513672
101.872299194	331.654968262
102.004089355	411.966430664
102.135879517	436.833648682
102.267662048	363.057769775
102.399452209	634.068847656
102.531242371	991.352355957
102.663032532	833.911926270
102.794815063	1105.061889648
102.926605225	1161.432861328
103.058395386	1229.147705078
103.190185547	1011.170410156
103.321968079	700.725219727
103.453758240	393.281402588
103.585548401	511.811828613
103.717338562	351.352905273
103.849121094	671.854980469
103.980911255	417.187286377
104.112701416	238.026855469
104.244491577	446.829406738
104.376274109	531.920898438
104.508064270	568.554565430
104.639854431	763.101806641
104.771644592	1057.991210938
104.903427124	1253.046752930
105.035217285	1338.243164062
105.167007446	914.171813965
105.298797607	1126.251708984
105.430580139	984.694091797
105.562370300	919.474426270
105.694160461	927.137084961
105.825950623	514.314575195
105.957733154	385.880279541
106.089523315	206.288070679
106.221313477	172.724411011
106.353103638	186.244171143
106.484886169	254.481445312
106.616676331	177.504501343
106.748466492	278.637969971
106.880256653	252.148010254
107.012039185	419.511718750
107.143829346	844.107666016
107.275619507	1203.114501953
107.407409668	1145.143432617
107.539192200	1674.919433594
107.670982361	1034.174804688
107.802772522	1272.316650391
107.934562683	760.389953613
108.066345215	549.107421875
108.198135376	619.714599609
108.329925537	500.590728760
108.461708069	376.475646973
108.593498230	407.092895508
108.725288391	677.105285645
108.857078552	1114.170410156
108.988861084	1408.632812500
109.120651245	1836.537475586
109.252441406	1726.511474609
109.384231567	1997.043212891
109.516014099	1348.290649414
109.647804260	1116.830688477
109.779594421	936.581298828
109.911384583	669.703674316
110.043167114	406.300689697
110.174957275	405.410522461
110.306747437	291.059631348
110.438537598	217.005233765
110.570320129	235.123245239
110.702110291	447.951263428
110.833900452	710.528747559
110.965690613	1038.004882812
111.097473145	1204.584960938
111.229263306	1607.821044922
111.361053467	1573.045898438
111.492843628	1736.557006836
111.624626160	1930.651977539
111.756416321	1681.222656250
111.888206482	1438.233886719
112.019996643	610.924072266
112.151779175	373.890655518
112.283569336	269.177581787
112.415359497	257.538269043
112.547149658	277.887634277
112.678932190	255.583587646
112.810722351	171.514312744
112.942512512	452.221557617
113.074302673	806.930297852
113.206085205	914.132446289
113.337875366	1345.897949219
113.469665527	1271.959106445
113.601455688	1354.266357422
113.733238220	1216.407958984
113.865028381	945.394592285
113.996818542	597.857482910
114.128608704	224.544906616
114.260391235	171.109130859
114.392181396	385.023315430
114.523971558	249.223571777
114.655761719	159.980270386
114.787544250	632.826904297
114.919334412	774.938537598
115.051124573	1118.509887695
115.182914734	1579.516601562
115.314697266	1893.592041016
115.446487427	2052.289062500
115.578277588	1897.903198242
115.710067749	1180.893188477
115.841850281	691.924865723
115.973640442	473.012969971
116.105430603	507.183654785
116.237220764	450.681457520
116.369003296	250.895355225
116.500793457	206.916427612
116.632583618	254.381164551
116.764373779	269.596466064
116.896156311	227.090454102
117.027946472	292.987426758
117.159736633	534.528808594
117.291526794	538.088806152
117.423309326	589.610595703
117.555099487	660.196533203
117.686889648	1038.672119141
117.818672180	1525.121215820
117.950462341	1998.445068359
118.082252502	1821.281250000
118.214042664	1687.140625000
118.345825195	2212.105224609
118.477615356	1428.415893555
118.609405518	892.323608398
118.741195679	683.401367188
118.872978210	485.214385986
119.004768372	460.503204346
119.136558533	312.552490234
119.268348694	246.722534180
119.400131226	276.574462891
119.531921387	564.657043457
119.663711548	683.027770996
119.795501709	735.143737793
119.927284241	1587.636352539
120.059074402	1656.970703125
120.190864563	1484.885864258
120.322654724	1831.608642578
120.454437256	1980.508789062
120.586227417	1419.743530273
120.718017578	908.826477051
120.849807739	663.294860840
120.981590271	343.454010010
121.113380432	258.428619385
121.245170593	293.437194824
121.376960754	172.287414551
121.508743286	407.326721191
121.640533447	816.202026367
121.772323608	1296.081298828
121.904113770	1651.910278320
122.035896301	1500.647705078
122.167686462	1587.798095703
122.299476624	1478.679809570
122.431266785	1141.826782227
122.563049316	884.867370605
122.694839478	416.691894531
122.826629639	344.353546143
122.958419800	294.774963379
123.090202332	247.741424561
123.221992493	347.419342041
123.353782654	358.708038330
123.485572815	367.242553711
123.617355347	616.570129395
123.749145508	903.861022949
123.880935669	1057.308837891
124.012725830	1365.298217773
124.144508362	1324.910400391
124.276298523	744.425048828
124.408088684	788.162353516
124.539878845	492.189331055
124.671661377	296.553436279
124.803451538	275.141021729
124.935241699	236.500869751
125.067031860	247.200439453
125.198814392	277.090087891
125.330604553	337.171051025
125.462394714	507.975006104
125.594184875	280.736633301
125.725967407	395.590179443
125.857757568	547.401000977
125.989547729	722.493286133
126.121337891	688.693786621
126.253120422	744.489562988
126.384910583	470.090209961
126.516700745	618.627807617
126.648490906	390.811492920
126.780273438	432.836791992
126.912063599	378.110107422
127.043853760	369.348144531
127.175643921	362.381530762
127.307426453	323.823699951
127.439216614	371.378570557
127.571006775	310.780334473
127.702789307	310.258209229
127.834579468	555.151489258
127.966369629	436.638244629
128.098159790	552.308959961
128.229949951	586.555419922
128.361740112	676.751831055
128.493515015	784.027832031
128.625305176	746.032836914
128.757095337	764.200805664
128.888885498	493.416595459
129.020675659	432.156341553
129.152465820	327.972137451
129.284255981	263.770355225
129.416046143	191.714340210
129.547821045	421.883758545
129.679611206	328.992889404
129.811401367	237.280929565
129.943191528	231.271759033
130.074981689	339.307098389
130.206771851	476.365356445
130.338562012	592.472717285
130.470352173	850.096252441
130.602127075	764.656372070
130.733917236	1180.737426758
130.865707397	1379.807617188
130.997497559	1150.247802734
131.129287720	805.546630859
131.261077881	731.796936035
131.392868042	607.074462891
131.524658203	374.932739258
131.656433105	180.735656738
131.788223267	275.005432129
131.920013428	331.862335205
132.051803589	280.188720703
132.183593750	302.563903809
132.315383911	536.899536133
132.447174072	940.878662109
132.578964233	1184.503295898
132.710739136	1460.245849609
132.842529297	1491.922607422
132.974319458	1031.793579102
133.106109619	878.742370605
133.237899780	625.259460449
133.369689941	489.213470459
133.501480103	185.126785278
133.633270264	207.670349121
133.765045166	235.934722900
133.896835327	435.376098633
134.028625488	505.264831543
134.160415649	534.848754883
134.292205811	687.449401855
134.423995972	659.818115234
134.555786133	627.923034668
134.687576294	797.146362305
134.819351196	826.056274414
134.951141357	750.656127930
135.082931519	563.185363770
135.214721680	409.612304688
135.346511841	374.213684082
135.478302002	462.199432373
135.610092163	367.837249756
135.741882324	416.944335938
135.873657227	525.778076172
136.005447388	548.453735352
136.137237549	752.224914551
136.269027710	434.469818115
136.400817871	611.831115723
136.532608032	541.356689453
136.664398193	481.238555908
136.796188354	543.039245605
136.927963257	521.157714844
137.059753418	518.174133301
137.191543579	509.485687256
137.323333740	471.129516602
137.455123901	589.461669922
137.586914062	609.246398926
137.718704224	695.117797852
137.850479126	726.458862305
137.982269287	927.339782715
138.114059448	1198.551635742
138.245849609	754.926635742
138.377639771	695.000854492
138.509429932	734.766906738
138.641220093	708.932067871
138.773010254	642.414001465
138.904785156	368.784484863
139.036575317	269.541748047
139.168365479	414.990905762
139.300155640	474.079132080
139.431945801	501.261444092
139.563735962	436.442810059
139.695526123	381.120513916
139.827316284	283.622253418
139.959091187	512.034545898
140.090881348	333.340850830
140.222671509	483.978729248
140.354461670	650.061462402
140.486251831	1014.784057617
140.618041992	1122.564331055
140.749832153	1118.731201172
140.881622314	1420.794311523
141.013397217	1414.232421875
141.145187378	1259.005493164
141.276977539	675.478942871
141.408767700	809.013000488
141.540557861	740.111999512
141.672348022	485.932464600
141.804138184	428.423400879
141.935928345	414.770904541
142.067703247	372.786773682
142.199493408	405.469757080
142.331283569	508.373443604
142.463073730	151.711669922
142.594863892	367.146362305
142.726654053	347.972412109
142.858444214	284.933563232
142.990234375	550.409240723
143.122009277	805.980224609
143.253799438	978.827087402
143.385589600	1051.895019531
143.517379761	1417.390991211
143.649169922	1414.541503906
143.780960083	1418.773803711
143.912750244	1444.343994141
144.044540405	1002.913330078
144.176315308	578.134460449
144.308105469	639.993469238
144.439895630	913.359924316
144.571685791	739.557189941
144.703475952	741.799743652
144.835266113	886.445068359
144.967056274	816.933959961
145.098846436	649.586486816
145.230621338	1055.509765625
145.362411499	1376.546386719
145.494201660	760.284790039
145.625991821	656.190795898
145.757781982	657.300781250
145.889572144	659.903320312
146.021362305	710.003845215
146.153152466	755.086181641
146.284927368	1197.521728516
146.416717529	1486.351440430
146.548507690	872.950195312
146.680297852	1753.529907227
146.812088013	1775.254516602
146.943878174	2338.347412109
147.075668335	1864.048217773
147.207443237	1515.626220703
147.339233398	1382.875976562
147.471023560	1246.072021484
147.602813721	993.672424316
147.734603882	791.994262695
147.866394043	735.121276855
147.998184204	802.204956055
148.129974365	518.238769531
148.261749268	734.114929199
148.393539429	814.991821289
148.525329590	985.365234375
148.657119751	977.888366699
